# Action Potential Duration
444.3315163993091,444.372634731398
440.1499489808679,440.1856890360662
435.8944232402891,435.9028999505263
431.762083092989,431.8067154406947
428.1392158572843,428.2570626489412
427.0786546345405,427.2886734881217
426.1134263899349,426.5219428914904
425.0625792632491,425.82795544364
422.4643365372192,424.2069795389698
419.1056059748009,421.9180155435755
412.697854280535,417.2400842346885
405.4347327478647,408.2147735097585
298.8700066845327,349.0621304899294
