# Transmembrane potential
-0.1819853500072147,-2.303777013903916,-5.454785170591274,-8.366699765379451,-87.06902643665919,-88.29443385351274,-88.86404132361213,-89.24036111481793,-89.51513382093587,-89.72454341444734,-89.89206258969948
-0.1777943978844063,-2.300023062097087,-5.471266371517014,-8.415627674288373,-87.07183023054402,-88.2963919085844,-88.8656738186524,-89.24180886239074,-89.51646188045957,-89.7257852742748,-89.89324187673283
-0.1735898536586403,-2.296146322314968,-5.48754575599368,-8.464326598864465,-87.07462507829997,-88.29834315292122,-88.86730065593032,-89.24325167084895,-89.51778542461814,-89.72702298476132,-89.89441727650917
-0.1693714922148233,-2.292140114039924,-5.503610770338685,-8.512778683696864,-87.07741079879672,-88.30028722052799,-88.86892150923707,-89.24468920930312,-89.51910414339388,-89.72825622119727,-89.89558845735695
-0.1651397621338554,-2.288004417550902,-5.519458533407266,-8.560976504344367,-87.08018741043769,-88.30222411349618,-88.87053637229428,-89.24612147254189,-89.52041805654773,-89.72948499344812,-89.89675542245253
-0.1608951913686825,-2.28373962615726,-5.535087638575821,-8.608914089663365,-87.08295493770117,-88.30415385628392,-88.87214526527202,-89.24754847865813,-89.52172718272207,-89.73070931839268,-89.89791818699696
-0.1566383161733099,-2.279346168911925,-5.55049663132762,-8.656585501534829,-87.08571340428215,-88.30607647472371,-88.87374821121631,-89.24897024826919,-89.52303154087139,-89.73192921362777,-89.89907676746984
-0.1523696726469452,-2.274824488646704,-5.565684057610565,-8.703984830051258,-87.0884628329855,-88.30799199476189,-88.87534523342606,-89.25038680220479,-89.52433115000443,-89.73314469676784,-89.90023118043388
-0.1480897957354715,-2.270175039557669,-5.580648474447876,-8.751106195286289,-87.09120324606914,-88.30990044231764,-88.87693635516115,-89.25179816124984,-89.52562602907058,-89.7343557853674,-89.90138144240204
-0.143799219066223,-2.265398286960145,-5.595388451340533,-8.797943749683139,-87.09393466531917,-88.31180184326652,-88.87852159960978,-89.25320434611604,-89.52691619694733,-89.73556249691242,-89.90252756982304
-0.1394984564517927,-2.260494690304357,-5.609902619303134,-8.844491880946141,-87.09665711209011,-88.31369622254326,-88.88010098908556,-89.25460537672532,-89.52820167178901,-89.73676484821769,-89.90366957851363
14.75801993152222,12.65006722673457,9.295148551476633,6.040221396487782,-72.39575403459581,-73.64096771498687,-74.22004952403972,-74.60269091559377,-74.88213258799907,-75.09514032882474,-75.26556884000108
29.44238360610392,27.37480926537026,24.04853837855719,20.80359496637138,-57.42139062954421,-58.88701308792324,-59.54887112037349,-59.98142637752292,-60.29531983571384,-60.53409861943945,-60.72453076986849
43.8974832211554,41.89541393941998,38.63090787701956,35.42725171381482,56.15758465826001,50.84196184803233,47.05467165648062,43.72397945486009,40.68972316368087,37.91472938374497,35.35789580403966
43.19457495242265,41.29988533451372,38.09015869560523,34.94279571786992,50.92191671467049,49.53330653583313,48.84077323001492,48.36000724017686,47.99185202216702,47.6918730573466,47.44581258997535
42.42016335316382,40.61212917179647,37.49487921322742,34.41292376104956,38.5596956981296,37.92424961470329,37.62356915402789,37.41940297460731,37.26512321724366,37.13488379872662,37.0307151058541
41.57926979282168,39.86272922859566,36.84722100151678,33.83897978596958,26.13564674519738,26.0646705432381,26.05993091498504,26.06498871277063,26.07816862926618,26.07279106984,26.08279940281004
40.67959388959038,39.05761374674175,36.15122410688154,33.22412837843701,15.96452952122455,16.31210242159635,16.52573108617205,16.68367734013205,16.82625667796666,16.90267017995545,17.00288507607105
39.7302368146898,38.204369173748,35.41248012826117,32.57283847383823,8.534083759032452,9.132647720692042,9.479363681618375,9.731357054161601,9.953034348566376,10.08031668931422,10.23503633191449
38.74057293442052,37.31107989487878,34.63724960331794,31.89009926946157,3.846971817388108,4.52589585187655,4.917364273064495,5.202156123961409,5.449542977477454,5.598805048002183,5.771252692089015
37.71958930621012,36.38568592074316,33.83191467339985,31.18113216778798,1.427007089287993,2.097691850563584,2.486975618568496,2.771311558708731,3.015936433488833,3.16951382499375,3.339893519086696
36.67554989229253,35.43566066269677,33.00265099323345,30.45108112388606,0.5178227056495098,1.164163953408112,1.542835655589258,1.820353679289988,2.057013918410965,2.210270906557611,2.374758210938089
35.61591271074604,34.4678362153831,32.15526612020661,29.70485141517738,0.4874270218628047,1.122895207948591,1.499010430854576,1.775292811580805,2.00921000089989,2.164069409616725,2.326086599747267
34.54728505456491,33.4883675970059,31.29510538831613,28.94703220763448,0.9319282086128269,1.574467391108277,1.958603947440956,2.241300628324213,2.47941594975577,2.639293017748795,2.803592445866526
33.47547225234302,32.50274499211548,30.42704648811334,28.18185640213958,1.620372970010515,2.283913566296425,2.684320354845883,2.979397426252898,3.227083010367458,3.394797424768448,3.565128938919758
32.40555983843203,31.51583778513455,29.55548883408864,27.41319165903751,2.425939642811541,3.119013682925203,3.540625204564452,3.851647171557075,4.112115236837433,4.289260879667011,4.467857690392132
31.34200696402047,30.53195412327162,28.68440564025281,26.64454584352502,3.279491752077718,4.005872067328621,4.450678492853439,4.778975136684841,5.053439895168069,5.240430051680431,5.42809334725546
30.28868480571111,29.55490171369706,27.81733138824205,25.87908159690981,4.143597495103373,4.903348302307815,5.370996595356322,5.716100208917308,6.004185902046461,6.200434789289377,6.396831694343707
29.24900771203671,28.58804541945422,26.95744004648859,25.1196344244167,4.996885179451376,5.787468029313525,6.275895292491223,6.636049861357916,6.936227983878622,7.140426802483519,7.344408393392421
28.22594886387119,27.63435804062319,26.10755462940411,24.36873132405409,5.826204606816008,6.64315716357357,7.149044715582686,7.521548709016923,7.831474832140664,8.041800101654687,8.251642871062687
27.22213114917327,26.69646287813415,25.27017860839602,23.628608261155,6.623396223398798,7.460956592347813,7.980163811577106,8.361720741023063,8.678549386577147,8.892879173726808,9.106517738588609
26.23985140227299,25.77666786002544,24.44752165887608,22.9012256669777,7.38348371343446,8.235157061858217,8.7631390645699,9.15018311713326,9.470848789626798,9.686961853527544,9.902229224303429
25.28108309366646,24.87699216011046,23.64151639879805,22.18828147346598,8.103644140712522,8.962731628424518,9.494881495845469,9.88385552772638,10.2053393087878,10.42107945000289,10.63586289641163
24.34755633974345,23.99918535879811,22.85383275419307,21.49122261228153,8.782634518255316,9.642645342001719,10.17458734452896,10.56216447230358,10.88167986633885,11.09509384939842,11.30748535828227
23.4407243384328,23.14474072265329,22.08588887729772,20.81125149904051,9.420434196124265,10.27540336795059,10.8032048260236,11.18645601363514,11.50158381939015,11.71100176977538,11.9193798238408
22.56179391350101,22.31490385528907,21.33885929161384,20.1493515049456,10.01796542313876,10.86268725287823,11.38299832703321,11.75948327714531,12.06825180560287,12.27234278524786,12.47544028456104
21.7117133711194,21.51067805481264,20.61368156313825,19.50626565249915,10.57688675755976,11.40703462782873,11.91716485852003,12.28498450972089,12.58589055602757,12.78366805009054,12.98055460074963
20.89120320028547,20.73282785070106,19.91106248602327,18.88254703184259,11.09939158781117,11.91158497941524,12.40950410390282,12.76728957673157,13.05929277696185,13.25010216702334,13.4401787254274
20.100714612803,19.98188216552976,19.23148482838975,18.27850474171856,11.58804263382753,12.37980758354001,12.86413053281511,13.21100276960017,13.49348378564202,13.67696213604669,13.85993043261463
19.3404717316994,19.25813844844419,18.57521546040419,17.69430217944157,12.04561319105366,12.81533001696131,13.28523844650961,13.62075332435768,13.89345406821088,14.06948667691844,14.24527979448431
18.61046102680188,18.56166894972855,17.9423156153195,17.12989989898959,12.47495787985923,13.22175474374423,13.67691939290072,14.00098932052076,14.26394745865331,14.43262025598754,14.60136819774101
17.91043201822712,17.89233000108094,17.33265373534485,16.58510229794787,12.87889874287559,13.60253912076798,14.04302759429182,14.35585178003773,14.60933227347571,14.77087773672588,14.93284745399409
17.23991838115432,17.24977491381074,16.74592104947238,16.05957984527707,13.26014221678113,13.96090320906774,14.38709092265194,14.6890801887601,14.93350851629262,15.08826877945006,15.24381912804999
16.59825424686548,16.63347064955485,16.18164978453546,15.55286955411625,13.62122106065462,14.29977118443344,14.7122598105255,15.00397478575221,15.23988327716665,15.38826437987914,15.53782884695756
15.98459528008688,16.04271806302848,15.63923364143073,15.06440511343843,13.96445094638245,14.62174272539398,15.02128640973635,15.30338063077588,15.53137733473128,15.67380205177306,15.81782840276788
15.39794448753058,15.47667517870037,15.1179499566636,14.59353886510217,14.29190959887339,14.92908351964096,15.31652693182939,15.58969881682003,15.81040118582688,15.94731895094061,16.08625939282942
14.83718063820297,14.9343826823376,14.61698282547914,14.1395586159335,14.60541752663398,15.2237320834297,15.59996003456949,15.86491742828185,16.07894143688521,16.21078220606916,16.34506241314303
14.30108718691413,14.41479063115068,14.13544639263002,13.70170769609832,14.90656086786256,15.50731775248444,15.87321574577944,16.13064876553134,16.33859846709182,16.46574570096685,16.59577600667665
13.7883861231639,13.9167853148146,13.67240752146071,13.27920136827518,15.19669604265871,15.78118561554656,16.13761030776756,16.38817177023675,16.59058676232403,16.71341846382827,16.83957023786267
13.29776364924836,13.43921523078646,13.22690712232613,12.87124706054739,15.47694293722148,16.04642526988393,16.39418339115018,16.63847511392628,16.83585832346584,16.9547025009753,17.07730081941485
12.82789768790728,12.98091525609703,12.79797954207052,12.47705529259344,15.74824288549456,16.30390096872589,16.64373527343892,16.88230036867087,17.07509438344388,17.19024052017342,17.30956642637022
12.37748258962422,12.54072827990123,12.38466956892087,12.09585264216631,16.01135038961663,16.55428143271847,16.8868623402809,17.12018098039106,17.30877814197327,17.42046517139584,17.53675586647062
11.94524956793459,12.11752377889329,11.98604677287601,11.72689207150751,16.26687526714981,16.79806817777323,17.12398953079053,17.35247839964983,17.53720354598818,17.64563876458837,17.75908915139436
11.529983182975,11.71021304451261,11.60121706375682,11.3694605172162,16.51527139218521,17.03562165911971,17.35540059989141,17.57941353771325,17.76054099249108,17.86588761136977,17.97665289926264
11.1305338354664,11.31776098416103,11.22933149446353,11.02288445964772,16.75688287280731,17.26718487050616,17.58126338100118,17.80109450333911,17.97884704343598,18.08123139591051,18.18943028078459
10.74582641015565,10.93919460207274,10.86959245698133,10.68653359245576,16.99196692862178,17.49290428064822,17.80165247481906,18.01754018483549,18.19209209136114,18.29160787374448,18.39732600339959
10.3748654003407,10.57360840939973,10.52125750892732,10.35982279496442,17.22069244078469,17.71284815403867,18.0165679392468,18.22870026296556,18.40018241644502,18.49689340361048,18.60018692816072
10.01673680813485,10.22016711405367,10.18364112830744,10.04221266110342,17.44315874122583,17.92702240778497,18.22595430795752,18.43447204762127,18.6029762594677,18.69691916937287,18.79781892555279
9.670608215189572,9.878106000386129,9.856114725846314,9.733208773900264,17.65941004743612,18.13538421541916,18.42971298831215,18.63471445756106,18.80029785776139,18.89148689272625,18.9900005480293
9.335725453674359,9.546729431839436,9.5381052518159,9.432360321776757,17.8694462175083,18.33785359541858,18.6277131649975,18.8292595969349,18.99194888005849,19.08037868174034,19.17649404575637
9.011408954088225,9.225407903157592,9.229092722719095,9.139257657254836,18.07323231557008,18.53432322673024,18.81980222998722,19.01792228124726,19.17771769499844,19.26336592287299,19.35705418945433
8.697048584979065,8.913574040201198,8.928606967702301,8.853529512299284,18.27070694313358,18.72466672378033,19.00581386101797,19.20050783924803,19.35738679629036,19.44021689442056,19.53143529860392
8.392097837728736,8.610717902205355,8.636223860083204,8.574839960320425,18.46178940175006,18.90874558513178,19.18557466221448,19.37681847810128,19.53073904443649,19.61070260722051,19.69939680989804
8.096067722962687,8.316381889940763,8.351561260148847,8.302885193040865,18.64638582821168,19.08641500732846,19.35890964778044,19.54665845474755,19.69756250708587,19.77460142390281,19.86070766272108
7.80852062724645,8.030155508991051,8.074274854855537,8.037390266643394,18.82439443143789,19.25752873143355,19.52564673808636,19.7098382578771,19.8576542542886,19.93170271616144,20.01514972714362
7.529064334435683,7.751670184271641,7.804054040848007,7.778105917611841,18.99570994482244,19.42194306623323,19.68562042706538,19.86617796972873,20.01082350118841,20.08180973112062,20.16252045592976
7.257346362023676,7.480594272792923,7.540617961113289,7.524805519101701,19.16022739438046,19.57952021019889,19.8386747544546,20.01550994623755,20.15689400586846,20.22474180887833,20.3026347399631
6.993048802790468,7.216628378248316,7.283711775307406,7.277282227778767,19.31784527002714,19.730130974715,19.98466569216793,20.15768092809911,20.29570593440344,20.36033606597084,20.4353268767333
6.735883324173408,6.95950103414423,7.033103206661337,7.035346353162622,19.46846817519554,19.87365699405002,20.12346303423829,20.29255367372433,20.42711726957486,20.4884486357028,20.5604512936334
6.485587028022271,6.70896479181498,6.788579410775625,6.798822966768114,19.61200901916512,20.00999249309066,20.2549518633921,20.42000818746374,20.55100483183936,20.60895553734545,20.67788323678426
6.241918708373742,6.464792726129434,6.549944164892338,6.567549756726183,19.74839080706345,20.1390456863553,20.37903365397667,20.53994260238921,20.66726497245231,20.72175323140516,20.78751927724766
6.004655523551627,6.226775357403805,6.317015375708996,6.341375124764116,19.8775480745186,20.26073978975207,20.4956270602908,20.6522737658185,20.77581391630209,20.82675890674725,20.88927748165614
5.773590149871751,5.994717965385728,6.089622899481463,6.120156516047575,19.99942800729608,20.37501380215199,20.60466843097148,20.75693756715491,20.87658812806909,20.92391053669141,20.98309735597265
5.54852835384214,5.768438273581035,5.867606653335572,5.903758968035576,20.11399128081733,20.48182301769089,20.70611208357088,20.85388904102754,20.96954412046945,21.01316673471241,21.06893960149161
5.329286937647282,5.547764472677207,5.650814995275451,5.692053861790689,20.22121265006915,20.58113928405525,20.79993036846111,20.94310227374427,21.05465821638303,21.09450643560119,21.146785705933
5.115692016515296,5.332533548670658,5.439103348291746,5.484917857766496,20.32108131690857,20.67295107546263,20.88611354740754,21.02457013735033,21.13192619888517,21.16792842445415,21.21663739073013
4.907577587102096,5.122589881938912,5.232333043022518,5.282231997650599,20.41360109898523,20.75726338661275,20.96466947096328,21.09830387281624,21.20136278677337,21.23345073332865,21.27851593365314
4.704784348093044,4.91778408424123,5.030370353898673,5.083880954108813,20.49879042229352,20.83409746915554,21.0356232571893,21.16433254180807,21.2630009852963,21.29110992355434,21.33246138413541
4.507158737256401,4.717972042444663,4.833085704845042,4.889752411035745,20.57668215759712,20.90349043150693,21.09901666243354,21.22270236491776,21.31689133330443,21.34096027031073,21.37853168736417
4.314552152625732,4.523014140240468,4.640353022207991,4.699736557994497,20.64732331952505,20.96549471947965,21.15490741576619,21.27347596298965,21.36310106199166,21.38307286500323,21.4168017321933
4.126820329048742,4.332774631816483,4.452049214453324,4.513725683788893,20.71077464592606,21.02017749460494,21.20336848993777,21.31673151715022,21.40171318013043,21.41753465007149,21.44736233709561
3.943822844828481,4.14712114423257,4.268053760157051,4.331613855455064,20.76711007400965,21.06761992599507,21.24448727921469,21.3525618622386,21.43282550004255,21.44444740005441,21.47031918760603
3.765422736475922,3.965924287972823,4.088248387789363,4.15329667031336,20.81641612883931,21.10791641060131,21.2783647146133,21.38107352748209,21.45654961772306,21.46392666195663,21.48579173795934
3.591486202618464,3.789057357723637,3.912516832696297,3.978671070037086,20.85879123883111,21.1411737358441,21.30511433214813,21.40238573742087,21.47300985971642,21.47610066717266,21.49391208885947
3.421882380833566,3.616396107801029,3.740744658468179,3.807635206940092,20.89434496987957,21.16751019770331,21.3248613062323,21.41662938579615,21.48234220851106,21.48110922640733,21.49482385251487
3.256483183593055,3.447818588799779,3.572819131524025,3.640088353842568,20.92319729431516,21.18705468645863,21.33774145983379,21.42394599100705,21.48469321735223,21.47910261817559,21.48868101522965
3.095163181622164,3.283205033954808,3.408629139226602,3.4759308499349,20.94547772472844,21.1999457513584,21.34390026217996,21.42448664816695,21.48021892447361,21.47024048057478,21.47564680695688
2.937799524818262,3.122437785398853,3.248065143173611,3.315064076021367,20.96132446051761,21.2063306545659,21.34349182386384,21.41841098405987,21.46908377582255,21.45469069713423,21.45589258630763
2.784271892463604,2.965401251984243,3.091019160492844,3.157390457166758,20.97088353696702,21.2063644237899,21.33667789825521,21.40588612304406,21.45145956441199,21.43262836786952,21.42959674858024
2.63446246583174,2.811981891628672,2.93738476701319,3.002813470300113,20.97430796076261,21.20020891205964,21.32362689716961,21.38708567311848,21.42752439348655,21.40423472716969,21.39694366344245
2.488255917456012,2.662068212265211,2.787057117101075,2.851237682783646,20.97175684881311,21.1880318721623,21.30451292780488,21.36218873804564,21.39746166975491,21.36969612206193,21.35812264797946
2.345539412326333,2.515550786444965,2.639932975755726,2.702568796160647,20.96339457890834,21.17000605233454,21.27951485702973,21.33137896123349,21.36145913202738,21.32920304128467,21.31332697992658
2.206202617130522,2.372322275475483,2.495910759258834,2.556713694694776,20.94938995841567,21.14630831889873,21.2488154082131,21.29484360622756,21.31970791971913,21.28294917891505,21.26275295504844
2.070137714379414,2.232277459696107,2.354890581286276,2.413580500272894,20.92991541652613,21.1171188106684,21.21260029492624,21.25277267774028,21.27240168484462,21.23113054267717,21.20659899181663
1.937239418868802,2.0953132721082,2.216774301921928,2.273078630161027,20.90514622478021,21.08262012912463,21.17105739503981,21.20535808637344,21.21973575034692,21.17394461050688,21.14506478578291
1.807404994451354,1.961328833106879,2.081465577475796,2.135118855563801,20.87525974980739,21.04299656759264,21.12437596798238,21.15279285944898,21.1619063168813,21.11158953709571,21.07835051535067
1.680534269531419,1.830225484513122,1.948869909408915,1.999613359491296,20.84043474146823,20.99843338192959,21.07274591722912,21.09527039968276,21.09910971951083,21.04426341163631,21.00665609275248
1.556529651165689,1.70190682149098,1.818894690950955,1.86647579270494,20.80085065889948,20.94911610457573,21.01635709945309,21.03298379282052,21.03154173517413,20.97216356745385,20.93018049441152
1.435296131782171,1.576278721262833,1.69144925064105,1.735621326757547,20.75668703632976,20.89522990322199,20.95539868119806,20.96612516480307,20.95939694125333,20.8954859436898,20.8491211119986
1.316741296676573,1.453249367798123,1.56644489151966,1.606966703361638,20.70812288995908,20.83695898480921,20.89005854342053,20.89488508853945,20.88286812510124,20.81442449875035,20.76367316713343
