# Transmembrane potential
-0.1816939031489298,-2.30314864342504,-5.453311880674229,-8.361408033940675,-86.88637306589891,-88.27268683993825,-88.84990090884774,-89.22923344825881,-89.50608128857914,-89.71659206447237,-89.88518387735192
-0.1775033257969466,-2.299392848913233,-5.469781470427316,-8.410280692097741,-86.88929404872768,-88.27465328903951,-88.85153825614083,-89.23068279577069,-89.50741119813438,-89.71783674553691,-89.88636543467754
-0.1732991649578468,-2.29551429277516,-5.486049258150396,-8.458924546872915,-86.89220560198956,-88.27661290468184,-88.85316992876861,-89.23212719841601,-89.50873658449225,-89.71907726640269,-89.88754309622661
-0.1690811960408485,-2.29150629632845,-5.502102692011808,-8.507321756311997,-86.89510757322978,-88.2785653208752,-88.85479560079875,-89.23356632603601,-89.51005713861673,-89.72031330252508,-89.8887165303174
-0.1648498676086834,-2.287368840197365,-5.517938900880791,-8.555464908047094,-86.89800001155972,-88.28051053946334,-88.85641526590007,-89.2350001733986,-89.51137288051699,-89.72154486399255,-89.88988574030712
-0.1606057075477335,-2.283102317955216,-5.53355654699742,-8.603348041037949,-86.90088296881399,-88.28244858482977,-88.85802894426298,-89.23642875859782,-89.51268382792981,-89.7227719677434,-89.89105074144531
-0.1563492520413725,-2.278707158916049,-5.548954134091614,-8.650965227231653,-86.90375649479159,-88.28437948273896,-88.85963665896257,-89.23785210225491,-89.51399000032161,-89.72399463141574,-89.89221155024528
-0.152081037116724,-2.274183806171597,-5.564130175501163,-8.698310566664588,-86.90662063687635,-88.28630325907248,-88.86123843332821,-89.23927022520402,-89.51529141718603,-89.72521287266319,-89.89336818330175
-0.1478015976464341,-2.269532714176809,-5.579083224775299,-8.745378189217101,-86.90947544013753,-88.28821993968764,-88.86283429065095,-89.24068314823492,-89.51658809755587,-89.72642670907912,-89.89452065715939
-0.1435114671834917,-2.26475434850482,-5.593811853354907,-8.792162256995169,-86.91232094747568,-88.29012955040086,-88.86442425415075,-89.2420908920644,-89.51788006031337,-89.72763615818828,-89.89566898829854
-0.1392111594677147,-2.259849168853692,-5.608314644593041,-8.838657166891599,-86.91515719841898,-88.29203211609236,-88.86600834617231,-89.24349347661959,-89.51916732427746,-89.72884123684278,-89.8968131925664
14.75830592389474,12.65071269474513,9.296745023419417,6.046101282484078,-72.20921326310602,-73.61869282218581,-74.20553495009521,-74.59122966386268,-74.87324367933451,-75.08694024783193,-75.25845658746314
29.44266609337095,27.37545006894308,24.050133311172,20.80949040557882,-57.19412928533794,-58.86097599746383,-59.53202891042119,-59.96807854414397,-60.28498495602076,-60.52446697860745,-60.71620741901918
43.89775976592592,41.89604527879955,38.63249018236475,35.4331242652376,56.82808659539546,50.99427896459563,47.19389598665715,43.8715673032401,40.83417824555072,38.07192800773463,35.50832634388254
43.21557952939336,41.30202861198279,38.1209634388341,34.94931773068743,51.18013315433571,49.58131706765998,48.88103485462262,48.39830637970301,48.02668395564375,47.72558540728401,47.47466585628145
42.44078124293954,40.61430978997838,37.52521227369279,34.41937344295658,38.70085623463533,37.95254759143619,37.64795849695525,37.4429199891213,37.28558996670385,37.1557673855798,37.04722734607981
41.59942951544465,39.86486013062107,36.87699290467314,33.84534728395217,26.1802796047224,26.07621149644982,26.07032011111467,26.07536049320261,26.08085401197923,26.08217949384024,26.08303621391995
40.69928335966277,39.05969319438874,36.1803434237932,33.2304078752482,15.93032924039096,16.31077027450613,16.5253646976894,16.68403134773057,16.80780026326061,16.90348556214076,16.98276195975339
39.74941036451262,38.20639273089324,35.44088023634018,32.57898158204662,8.452158670740253,9.123433868371936,9.472403127746302,9.725606998214822,9.922592331591828,10.07621387112404,10.20360372650008
38.75917028209547,37.3130462333401,34.66487212249416,31.89610680806592,3.749391372613342,4.513737519817274,4.907935188676336,5.194092597881387,5.417426526675392,5.593029301600109,5.738710474644328
37.73759410622979,36.38759177997783,33.85871600224186,31.18699738387024,1.331025199501159,2.085554590469317,2.477663947510368,2.763394555608453,2.986943893509729,3.164177663439004,3.310895250976194
36.69296077066417,35.4375010789811,33.02860444205057,30.45679620852536,0.4280238084287307,1.153214532111192,1.534679563433557,1.813482680423415,2.032018154964679,2.206252589486513,2.349994610682725
35.63271924475923,34.46961113241322,32.18034968468292,29.71040517140633,0.4028475455968956,1.113310546497784,1.492216093740098,1.7697949019013,1.987428422802701,2.161591452143848,2.304687211688303
34.56347995361821,33.49007633946106,31.31931027631845,28.9524207092382,0.8504406062316211,1.566120590402488,1.953094530697497,2.237153493262102,2.459830394387286,2.638352061170539,2.784431356397896
33.49105546814747,32.50438729395015,30.45036536819619,28.18707301221081,1.540139689290745,2.276601942934142,2.679944054951151,2.976485165792998,3.208840930818549,3.395318070037794,3.547305720463463
32.42053446591506,31.51741391500909,29.57792340847923,27.41823170472738,2.345770984616107,3.112589161554999,3.537302941008051,3.84987316395573,4.094625560379222,4.291148444795832,4.450780425003957
31.35636509216554,30.53346452912666,28.70594774494332,26.6494029638831,3.198757981017018,4.000235736714931,4.44828742483003,4.778255679429578,5.036381370070365,5.243615505332484,5.411400792531186
30.30243636215245,29.55634708621157,27.83798921273665,25.88375536519309,4.062108506957456,4.898476092946464,5.369468331906782,5.716370086542603,5.987406658407449,6.20484770737676,6.380356495913358
29.26215611676736,28.58942661591101,26.97722010211712,25.12413140991028,4.914719823784298,5.783342764083922,6.275183758282341,6.637252397998455,6.91967857945816,7.14597688936765,7.328081998347517
28.23850993527801,27.63567601377134,26.12646597909914,24.37304319485395,5.743657154388552,6.639759058555714,7.149115368231821,7.523621516007231,7.815175562431577,8.048388790021507,8.235482181198856
27.23411831153364,26.69771866357949,25.2882335931832,23.63273664508995,6.540898860677556,7.458272873552733,7.980976261620396,8.36461109403459,8.662563626183173,8.900393641619161,9.090597880474885
26.25126501032036,25.77786270809383,24.46473414593485,22.90517042486778,7.301535594230057,8.233181419100539,8.764653001022658,9.153826133954588,9.455267457643725,9.695298158368439,9.886636702055451
25.29194241801514,24.87812740251425,23.65790187992428,22.19205236258243,8.0227656057044,8.961453335328871,9.497057087470296,9.888193734815147,10.19024684657465,10.4301268751211,10.62069453949204
24.35787006566446,24.00026239213503,22.86940841337628,21.49481691008766,8.703323527863697,9.642047645667191,10.17737740452579,10.56712433776466,10.8671552050095,11.10474581825887,11.29282914198386
23.45050500966519,23.14576102661209,22.10067355030555,20.81467822689571,9.343138014279294,10.27546427419075,10.80656463591453,11.19197319717729,11.48769073988768,11.72115911944682,11.90531076972154
22.57105216257312,22.31586899626325,21.35287349342075,20.15260567558762,9.943063229353104,10.86337787701061,11.38688029911719,11.76549842335915,12.05503943965656,12.28291449429181,12.46200041566705
21.7204682939923,21.5115896907922,20.62694749676868,19.50935428708715,10.5046768415941,11.40832764211209,11.92152724956506,12.29144137344741,12.57338421296546,12.7945818297951,12.96777315213339
20.89946360522494,20.73368773641763,19.92360402431685,18.88547725566135,11.03009807231388,11.91344182213186,12.41430330240199,12.77413299503562,13.04749711667758,13.26129271862826,13.42806369251805
20.10850287913973,19.98269215405953,19.2433274318032,18.281291269716,11.52180729318934,12.38219987181692,12.86932697179032,13.218185952209,13.4823891809251,13.6883819176161,13.84846758654272
19.34780759986667,19.25890048700662,18.58638607413485,17.69693306504623,11.98250387612385,12.81822472237087,13.29079905530718,13.62823582952142,13.88303618622652,14.08109809108151,14.23445059444813
18.61736058070032,18.56238507870366,17.95284250680092,17.13239283364821,12.41498418402908,13.22514456213456,13.68281372720361,14.00874537462102,14.25417150683849,14.44439487459434,14.59113735401281
17.91691427632702,17.89300234538346,17.34256626540226,16.58745576053412,12.82201352023464,13.60637528894956,14.04923026219368,14.36386084868503,14.60016422527755,14.78280094906024,14.92317760644893
17.24600347305707,17.25040565929963,16.75524940928766,16.06179685119506,13.20627150235619,13.96515535867738,14.39358403945924,14.69732402151232,14.92492207896998,15.10034424878798,15.23467837159444
16.6039626355922,16.63406202780456,16.19042469565186,15.55496248404843,13.57025075248408,14.30441211177421,14.71902596621241,15.01244185294744,15.23183501849773,15.40048875986929,15.52917411382247
15.98994772181651,16.04327232986577,15.64748603301465,15.06637623818957,13.91625256745277,14.62674756756123,15.02831394577191,15.31205785098961,15.52382119281436,15.68616797793401,15.80961587568553
15.40296180022704,15.47719459058079,15.12571063547028,14.59539905722733,14.24633008225169,14.93443414896567,15.32380849034994,15.59859480952107,15.80329962962399,15.95982961335427,16.07844841544053
14.84188347499122,14.93486947259743,14.62428215286535,14.14131386782075,14.56231179739665,15.22941386985014,15.60748980558912,15.87402253176126,16.07226651559374,16.22345398139909,16.33762973090579
14.30549689222805,14.41524698686855,14.14231398225463,13.70336412337939,14.86578245198281,15.51332692215343,15.88098993601544,16.13997418169164,16.33229786597702,16.47860272466551,16.58870445312884
13.79252200924218,13.91721335541904,13.6788719692057,13.28076640459687,15.15809413883677,15.78750533945134,16.1456280788172,16.39771369767151,16.58464546078603,16.72647944010616,16.83281995275426
13.30164385166822,13.43961698932586,13.23299577711639,12.87272536574985,15.44038619745241,16.05305049789641,16.40243976411763,16.64824043776228,16.83025159492547,16.96798248211627,17.07084993837445
12.83153963783007,12.98129266379371,12.80371832313006,12.47845269254614,15.71360186771969,16.31082568929485,16.65223098097215,16.89229513321834,17.06979762544931,17.20375450311072,17.30339247074807
12.38090288386496,12.54108315435594,12.39008283185299,12.09717464998387,15.97850840426303,16.56150759431565,16.89560125250436,17.13041670231264,17.30376717234127,17.43422757602562,17.53084736358692
11.94846388040858,12.11785781604884,11.99115722408222,11.72814336470855,16.23571765598857,16.80558993288354,17.13297621014476,17.36295679380453,17.53246968543318,17.65966308522993,17.75342683803893
11.53300621666499,11.71052781425562,11.60604572031442,11.37064644486944,16.48570605333729,17.04343831646287,17.36463957431113,17.59014112773939,17.7560735352886,17.88018626925264,17.97122545400156
11.13337929158864,11.31805792926108,11.23389768477223,11.02400993228889,16.72883213049656,17.27529701875703,17.59075923379956,17.81207878764457,17.97463745230583,18.09581564997067,18.18423067404649
10.74850697438548,10.93947504003077,10.87391385629408,10.68760288401239,16.96535774649134,17.50131264502651,17.81140984630196,18.02878791306792,18.18813469987095,18.30648777071317,18.39234936733267
10.37739274645037,10.57387353670305,10.52535020326448,10.36083982719359,17.19546139860863,17.72155394224313,18.02659230376748,18.24021758428578,18.39647339068505,18.51207776020959,18.59543037797361
10.01912177121635,10.22041801230701,10.1875197001379,10.04318104448682,17.41925200207296,17.93602708627073,18.23625028164537,18.44626448372622,18.59951343179019,18.71241626841664,18.79328130722056
9.672860400514059,9.878343643799646,9.859792355201265,9.734131892464184,17.63678217163288,18.14468936459377,18.44028419023005,18.64678686087526,18.79708048592764,18.9073033061805,18.98568215485791
9.33785364339081,9.546954695593692,9.54159382706959,9.433241222987366,17.84805929858837,18.34746080727856,18.63856286019897,18.84161613230409,18.98897739983529,19.09651948079233,19.17239636549901
9.013421105511185,9.225621572224231,9.232402956021977,9.140099101515569,18.05305516723304,18.54423401263735,18.83093327829634,19.03056642107265,19.17499351039243,19.27983506620438,19.3531796791432
8.698951864332299,8.913776818266246,8.931748510893014,8.854334036164266,18.2517143040779,18.73488220516977,19.01722866253382,19.21344236802926,19.35491218700779,19.457017288451,19.52778718416242
8.393898686621686,8.610910420413624,8.639205417763266,8.575609902122661,18.44396117842583,18.91926676460873,19.19727513421322,19.39004550356668,19.52851691758943,19.62783614915007,19.69597890914874
8.097771928591902,8.316564715248765,8.354390697422275,8.30362271458616,18.62970638546867,19.09724272266169,19.37089721024016,19.56017942396175,19.69559619684972,19.7920690561611,19.85752423003143
7.81013339129793,8.030329151978773,8.076959297977671,8.038097373987675,18.80885193554907,19.26866350423154,19.53792230625272,19.72365397711148,19.8559474313742,19.94950448232969,20.01220531777314
7.530590339588016,7.751835106318191,7.806599969671379,7.778784479932956,18.98129576080024,19.43338508657182,19.69818441063058,19.88028862721381,20.00938003689615,20.09994483149278,20.15981980816703
7.258789834841521,7.480750892566469,7.543031292754089,7.525457285525047,19.14693553765892,19.59126931870168,19.85152706231657,20.02991513719746,20.15571786986176,20.24320865561337,20.30018283849321
6.994413481661785,7.216777077496909,7.285997937276751,7.277908842248402,19.30567191127256,19.74218664847619,19.99780574189674,20.17237968162812,20.29480110747517,20.37913233769947,20.43312856561776
6.737172647263171,6.959642162801454,7.035267206425333,7.035949367477159,19.45741119614279,19.8860183396982,20.13688976553439,20.30754448117002,20.42648766754647,20.50757133144982,20.55851125581506
6.486804179377489,6.70909867271091,6.790625892378635,6.799403851921056,19.60206761684021,20.02265824510259,20.26866364479628,20.4352890320452,20.55065424106066,20.62840102966152,20.67620601736019
6.243066621419801,6.464919658483026,6.551877456670588,6.568109912704932,19.73956514345256,20.15201419529543,20.39302850047541,20.55551098981357,20.66719691102895,20.74151731861278,20.78610923197039
6.005736915930586,6.22689561972324,6.318839534200554,6.341915888967065,19.86983896860885,20.27400896765726,20.50990262033703,20.66812675567718,20.77603181791044,20.84683686420352,20.88813872971999
5.774607555268359,5.994831819094377,6.091341746074337,6.120679170476715,19.99283666639217,20.38858128663858,20.61922195324505,20.77307174683379,20.87709514562485,20.94429716696215,20.98223369493105
5.549484146219892,5.768545965073084,5.869223804895551,5.904264768967342,20.10851906809074,20.4956861456661,20.7209404411965,20.87030066678489,20.97034307481613,21.03385641654435,21.0683545691434
5.330183352537169,5.547866235279058,5.652333889971206,5.692544008321294,20.21686083109941,20.59529506503893,20.81503008753873,20.95978728015577,21.05575161013098,21.11549314260438,21.1464825379587
5.116531168844716,5.332629604331041,5.440527267093293,5.485393497969787,20.31785099092144,20.68739620866434,20.90148083468946,21.04152413804875,21.13331620248279,21.18920582674431,21.21661897723163
4.908361485934281,5.122680442601697,5.233665127493207,5.282694242266249,20.41149303822579,20.77199428165108,20.98030028020891,21.11552219241408,21.20305122651051,21.25501222900804,21.27878480730678
4.705514908818067,4.917869352985251,5.0316136208474,5.08433088060202,20.49780492743472,20.84911026723712,21.05151325022978,21.18181024905874,21.26498933696701,21.3129486654552,21.33301971437022
4.507837791599431,4.718052214426435,4.834243058321296,4.890191066288519,20.57681896455486,20.91878102742818,21.11516124862616,21.24043430434135,21.3191807201701,21.3630692072581,21.37938127788246
4.315181456822886,4.523089403468554,4.641427263271646,4.70016496069819,20.64858152845533,20.98105878436688,21.17130179926866,21.29145678565458,21.36569225637387,21.40544478200218,21.41794402208018
4.127401570507256,4.332845167787164,4.453043049095467,4.51414482644998,20.71315266789341,21.03601049909359,21.22000769758695,21.334955710578,21.40460660819842,21.44016220603776,21.4487984051739
3.944357647541756,4.147187128451245,4.268969805695798,4.332024706054259,20.77060559411707,21.08371716356614,21.26136618668274,21.37102377927602,21.43602124938321,21.46732316347323,21.47204975960607
3.76591266542534,3.965985890381566,4.089089178018373,4.153700173688604,20.82102608407043,21.12427302084912,21.29547807234039,21.39976741402592,21.46004744730641,21.48704314448847,21.48781719612011
3.59193276735845,3.789114743052354,3.913284822022141,3.979068149048096,20.86451180884837,21.15778472747649,21.32245679041271,21.4213057589079,21.47680921190012,21.49945035517347,21.49623248361119
3.422287038424038,3.616449435856839,3.741442225236046,3.808026763460576,20.90117160129825,21.18437047110222,21.34242743918663,21.43576965182874,21.48644222275619,21.50468461036069,21.49743891592038
3.256847341015284,3.447868014706778,3.573448580699329,3.640475269617629,20.93112467575992,21.20415905565649,21.35552578844378,21.4433005801721,21.48909274534958,21.50289622005692,21.49159017588725
3.095488197789755,3.283250708354323,3.409192704572405,3.476313987334181,20.9544998120235,21.21728896531068,21.36189727601763,21.4440496304603,21.4849165464057,21.49424487918429,21.47884920609239
2.938086712274335,3.12247985461855,3.248564989039985,3.315444278712594,20.97143451466541,21.22390741762348,21.36169600171508,21.43817644148136,21.47407781751134,21.4788985694199,21.4593870948069
2.784522518837803,2.965439858182948,3.091457383313938,3.15776854695396,20.98207415799174,21.224169415296,21.35508372752246,21.42584816938777,21.45674811512593,21.45703248098583,21.43338198473627
2.634677755116261,2.81201717292251,2.937763396590431,3.003190253834971,20.98657112588051,21.21823680501526,21.34222889206337,21.40723847232261,21.43310532420328,21.4288279613017,21.40101801121298
2.488437051147787,2.66210030283963,2.787378117736207,2.851613951560033,20.98508395487752,21.20627735092119,21.32330564633048,21.38252652118658,21.40333265169733,21.39447149648226,21.36248427557187
2.345687530472667,2.515579816656323,2.640198247284906,2.702945325312347,20.97777648797448,21.18846382930331,21.29849291678612,21.35189604223742,21.36761765531126,21.35415373075737,21.31797385854659
2.206318819307375,2.372348371945131,2.496122138028527,2.55709124337184,20.96481704559121,21.16497315023059,21.26797350102906,21.3155343963237,21.32615131196928,21.30806852802253,21.26768287766771
2.070223060624948,2.232300745399299,2.355049841102817,2.41395981214897,20.9463776194057,21.13598551094963,21.23193320036597,21.2736316987076,21.27912712965454,21.25641207890461,21.21180959183175
1.937294930589424,2.095333866459651,2.216883154999238,2.27346043390804,20.92263309383465,21.1016835850618,21.190559992815,21.22637998263339,21.22674030547329,21.19938205595755,21.15055355545459
1.807431655313182,1.961346852044358,2.081525675399553,2.135503865327624,20.89376049916967,21.06225175071548,21.14404324931137,21.17397240905767,21.16918693207955,21.1371768188929,21.08411482392657
1.680533026346565,1.830241040580124,1.948882844130369,2.000002275374273,20.8599382996265,21.01787536033012,21.09257299518582,21.1166025242768,21.10666325393203,21.06999467110272,21.01269321145507
1.556501413680589,1.701920023919246,1.818861995881609,1.866869301253594,20.82134571887045,20.96874005370815,21.03633921834952,21.05446356657019,21.03936497425563,20.99803316815105,20.93648760181358
1.435241775355361,1.576289676055231,1.691372401631213,1.736020101454312,20.77816210494387,20.91503111579079,20.97553122504437,20.98774782242479,20.96748661304682,20.92148847839293,20.85569531201535
1.316661663027591,1.453258177827734,1.566325307929451,1.60737140511977,20.73056633594191,20.85693287977472,20.91033703745748,20.91664603241735,20.89122091599167,20.84055479542813,20.77051150849247
